# name: lapalma_sky
# wavelength_unit: angstrom
# emission_unit: flam
# rescale_emission: {filter_name: "V", value: 21.9, unit: mag}
wavelength     emission
3500.964       0.499166
3505.304       1.889717
3509.644       1.312475
3513.983       0.938002
3518.323       2.109004
3522.662       2.668286
3527.002       2.564070
3531.341       2.146619
3535.681       2.238707
3540.020       4.450135
3544.360       4.214961
3548.699       2.382942
3553.039       2.120246
3557.379       3.260893
3561.718       2.686778
3566.058       1.703610
3570.397       1.183631
3574.737       1.376505
3579.076       1.164222
3583.416       2.063139
3587.756       1.687896
3592.095       1.055325
3596.435      0.5373298
3600.774      0.6357710
3605.114       1.278129
3609.453       2.344014
3613.793       1.784874
3618.132       2.160811
3622.472       2.437391
3626.812       2.394208
3631.151       2.718323
3635.491       2.308893
3639.830       2.486588
3644.170       2.524559
3648.509       2.034587
3652.849       2.274213
3657.188       1.597395
3661.528       1.343513
3665.868       1.754407
3670.207       1.386171
3674.547       2.136865
3678.886       1.161843
3683.226       1.337538
3687.565       1.584821
3691.905       1.867873
3696.244       1.750187
3700.584       1.514251
3704.924       2.077176
3709.263       1.509570
3713.603       1.663369
3717.942       1.945244
3722.282       2.366969
3726.621       2.842895
3730.961       2.816584
3735.301       2.664533
3739.640       2.569563
3743.980       2.016191
3748.319       1.918049
3752.659       2.189574
3756.998       2.041176
3761.338       2.073797
3765.677       2.262200
3770.017       2.288428
3774.356       2.597150
3778.696       2.029305
3783.036       1.871441
3787.375       2.025542
3791.715       1.978754
3796.054       2.630142
3800.394       2.374549
3804.733       1.859870
3809.073       2.279971
3813.413       2.285321
3817.752       2.122662
3822.092       2.448611
3826.431       2.157605
3830.771       2.260440
3835.110       2.767071
3839.450       2.086454
3843.790       1.973428
3848.129       1.533731
3852.469       1.359139
3856.808       1.602360
3861.148       1.864564
3865.487       1.585016
3869.827       1.253138
3874.167       1.272224
3878.506       1.413424
3882.845       1.529495
3887.185       1.661966
3891.525       2.245887
3895.864       2.285012
3900.204       2.120780
3904.543       2.192760
3908.883       2.455248
3913.222       1.938026
3917.562       1.823196
3921.902       1.373194
3926.241       10.79000
3930.581       11.73703
3934.920       4.442587
3939.260       2.709678
3943.599       2.719704
3947.939       1.957117
3952.278       1.623072
3956.618       1.554433
3960.958       1.895509
3965.297       1.886871
3969.637       1.654223
3973.976       2.038987
3978.316       2.175808
3982.655       2.017591
3986.995       1.788209
3991.334       1.724165
3995.674       2.339478
4000.014       2.612440
4004.353       2.496388
4008.693       2.803332
4013.032       2.462592
4017.372       2.868659
4021.711       2.102407
4026.051       2.395609
4030.390       2.681252
4034.730       3.658248
4039.070       4.462246
4043.409       3.503160
4047.749       3.046806
4052.088       3.165313
4056.428       3.216422
4060.767       3.315603
4065.107       3.101976
4069.447       2.992739
4073.786       2.920456
4078.126       2.806152
4082.465       3.185618
4086.805       3.007174
4091.144       1.943106
4095.484       1.989720
4099.823       2.579150
4104.163       2.641384
4108.502       2.751248
4112.842       2.215655
4117.182       2.776840
4121.521       3.026591
4125.861       2.545775
4130.200       2.538619
4134.540       2.318290
4138.879       2.249153
4143.219       3.307912
4147.559       3.151186
4151.898       2.976629
4156.238       3.604367
4160.577       3.741437
4164.917       3.610824
4169.256       3.479964
4173.596       3.807892
4177.936       3.555257
4182.275       3.343648
4186.615       2.892915
4190.954       2.715566
4195.294       3.568490
4199.633       3.179806
4203.973       2.267897
4208.313       2.542414
4212.652       3.071981
4216.992       2.665777
4221.331       2.345410
4225.670       2.298545
4230.010       2.168625
4234.350       2.569807
4238.689       2.972400
4243.029       2.933394
4247.369       2.835015
4251.708       3.209323
4256.047       3.434888
4260.387       3.749904
4264.727       3.232278
4269.066       2.775110
4273.406       2.959945
4277.745       2.892063
4282.085       2.768393
4286.424       2.507735
4290.764       3.093355
4295.104       2.990487
4299.443       2.403816
4303.783       3.345527
4308.122       3.521759
4312.462       3.187322
4316.801       3.051423
4321.141       3.243095
4325.480       2.919816
4329.820       2.458659
4334.160       3.208463
4338.499       3.205658
4342.839       4.105225
4347.178       5.911756
4351.518       6.056167
4355.857       5.869403
4360.197       4.524305
4364.537       3.624466
4368.876       3.028846
4373.216       2.924489
4377.555       3.131868
4381.895       3.523037
4386.234       3.167687
4390.574       3.372963
4394.914       4.079848
4399.253       4.450698
4403.593       4.719575
4407.932       4.035640
4412.271       3.869441
4416.611       4.016979
4420.951       4.027802
4425.291       4.062568
4429.630       3.851364
4433.969       3.595317
4438.309       4.101012
4442.648       3.495073
4446.988       3.601647
4451.328       3.122060
4455.667       3.319685
4460.007       3.232898
4464.346       3.978060
4468.686       4.018425
4473.025       3.532530
4477.365       3.476155
4481.705       3.095949
4486.044       3.541861
4490.384       3.680616
4494.723       4.351566
4499.063       3.967561
4503.402       3.489945
4507.742       3.565661
4512.082       3.246480
4516.421       4.372099
4520.761       4.628343
4525.100       4.145028
4529.440       4.389330
4533.779       4.016697
4538.119       3.879400
4542.458       4.142122
4546.798       4.173910
4551.138       4.553837
4555.477       3.622483
4559.816       4.517159
4564.156       4.611845
4568.496       4.247702
4572.835       4.541910
4577.175       4.349418
4581.515       4.002076
4585.854       4.227582
4590.193       3.782601
4594.533       3.554430
4598.873       3.683539
4603.212       4.490541
4607.552       4.046549
4611.891       3.895410
4616.231       4.388167
4620.570       4.112197
4624.910       3.702665
4629.250       3.609210
4633.589       4.413864
4637.929       4.436852
4642.268       4.507930
4646.608       4.272472
4650.947       4.038569
4655.287       3.649241
4659.626       4.410405
4663.966       4.523016
4668.306       4.569571
4672.645       4.728734
4676.985       4.196020
4681.324       4.076762
4685.664       4.432988
4690.003       3.754329
4694.343       3.744492
4698.683       3.897152
4703.022       4.392177
4707.362       4.328281
4711.701       5.118388
4716.041       4.975786
4720.380       4.748792
4724.720       3.847275
4729.060       4.210388
4733.399       3.983473
4737.739       4.015512
4742.078       4.631036
4746.417       5.124455
4750.757       4.960431
4755.097       5.360884
4759.437       4.853938
4763.776       4.721290
4768.115       4.894946
4772.455       4.178479
4776.794       4.105325
4781.134       4.145966
4785.474       4.807660
4789.813       4.902001
4794.153       4.651412
4798.492       4.505895
4802.832       4.442558
4807.171       4.982166
4811.511       4.476199
4815.851       4.674686
4820.190       4.936015
4824.530       5.648236
4828.869       5.102772
4833.209       5.737573
4837.548       5.532506
4841.888       4.669872
4846.228       4.188567
4850.567       4.018217
4854.907       4.085544
4859.246       3.729397
4863.586       4.631217
4867.925       5.074759
4872.265       4.905097
4876.604       4.928156
4880.944       5.403442
4885.284       6.245999
4889.623       5.150955
4893.963       4.205157
4898.025       4.135799
4898.302       4.720803
4906.763       4.686916
4915.500       4.568159
4924.238       4.924393
4932.975       4.426670
4941.712       5.308664
4950.450       5.022889
4959.187       5.520056
4967.925       5.278878
4976.662       4.745021
4985.399       4.275635
4994.137       4.764434
5002.875       4.706487
5011.612       5.204800
5020.349       4.658893
5029.086       4.620053
5037.824       4.671504
5046.562       5.035215
5055.299       4.846284
5064.036       5.048109
5072.774       5.373674
5081.511       4.973612
5090.249       5.053235
5098.986       4.490919
5107.724       4.911020
5116.461       4.677429
5125.198       5.104703
5133.936       5.004873
5142.673       5.100381
5151.411       5.000592
5160.148       5.421927
5168.885       5.312192
5177.623       6.186303
5186.360       6.535132
5195.098       6.466710
5203.835       5.855571
5212.572       5.277078
5221.310       5.525070
5230.047       5.776335
5238.785       6.096344
5247.522       5.834650
5256.260       5.311912
5264.997       5.224412
5273.734       5.350288
5282.472       5.629411
5291.209       5.361648
5299.947       5.746782
5308.684       6.498317
5317.421       6.620469
5326.159       6.247654
5334.896       6.391984
5343.634       5.671724
5352.371       5.754526
5361.108       5.759949
5369.846       5.810349
5378.583       5.721893
5387.321       5.539489
5396.058       6.012563
5404.796       5.704352
5413.533       5.750782
5422.271       6.009024
5431.008       6.191798
5439.745       7.278872
5448.483       8.442238
5457.220       8.542070
5465.958       7.609769
5474.695       6.777850
5483.433       6.650334
5492.170       6.478980
5500.907       6.368291
5509.645       6.515450
5518.382       6.606558
5527.120       6.614417
5535.857       7.001440
5544.594       7.890429
5553.332       20.57914
5562.069       64.71582
5570.807       72.41132
5579.544       57.49977
5588.281       15.80527
5597.019       7.734218
5605.756       7.641040
5614.494       7.443236
5623.231       7.303896
5631.969       6.945154
5640.706       6.869421
5649.443       7.338941
5658.181       7.344174
5666.918       7.847760
5675.656       8.038104
5684.393       7.937041
5693.130       7.653146
5701.868       7.600183
5710.605       7.379996
5719.343       7.432281
5728.080       7.068649
5736.817       7.666768
5745.555       8.036978
5754.292       8.349679
5763.030       8.777937
5771.767       9.057619
5780.505       8.910110
5789.242       8.741551
5797.979       8.278676
5806.717       7.709424
5815.455       8.163681
5824.192       8.429008
5832.929       8.219714
5841.667       8.029663
5850.404       9.288519
5859.142       10.42022
5867.879       14.67553
5876.616       27.14800
5885.354       33.41935
5894.091       30.98001
5902.829       16.94251
5911.566       12.07974
5920.303       11.70735
5929.041       11.23321
5937.778       11.30108
5946.516       11.04405
5955.253       10.81049
5963.991       10.51054
5972.728       10.36487
5981.465       9.718028
5990.203       9.570586
5998.940       9.170858
6007.678       9.110817
6016.415       8.906354
6025.152       9.058304
6033.890       8.729402
6042.627       8.277314
6051.365       8.200466
6060.102       8.094646
6068.839       8.042693
6077.577       8.173195
6086.314       8.418072
6095.052       8.167545
6103.789       8.498891
6112.527       8.149182
6121.264       8.405724
6130.001       9.114092
6138.739       10.97341
6147.477       11.81818
6156.214       11.77380
6164.951       10.56846
6173.688       9.294333
6182.426       9.111381
6191.164       9.616651
6199.901       9.840776
6208.638       10.02958
6217.375       11.08837
6226.113       12.49204
6234.851       12.89859
6243.588       13.52190
6252.325       12.78792
6261.063       12.45407
6269.800       12.21325
6278.538       26.27197
6287.275       61.36075
6296.013       67.34009
6304.750       50.29584
6313.487       18.21148
6322.225       11.69811
6330.962       11.20870
6339.700       12.45012
6348.437       24.82592
6357.174       28.00998
6365.912       26.18239
6374.649       12.94025
6383.387       9.315393
6392.124       8.350577
6400.861       8.286942
6409.599       8.217081
6418.336       8.299891
6427.074       8.034387
6435.811       8.733640
6444.549       10.19547
6453.286       12.82794
6462.023       12.85707
6470.761       11.24575
6479.499       10.74483
6488.236       11.99628
6496.973       12.52890
6505.710       11.44739
6514.448       10.56094
6523.186       11.35252
6531.923       12.17569
6540.660       12.46359
6549.397       12.53705
6558.135       13.07215
6566.873       11.75403
6575.610       10.87474
6584.347       9.818315
6593.085       9.315617
6601.822       9.616949
6610.560       8.496084
6619.297       8.551476
6628.035       8.826648
6636.772       8.547610
6645.509       8.414535
6654.247       8.243909
6662.984       8.040358
6671.722       8.188839
6680.459       7.658106
6689.196       8.202048
6697.934       8.556728
6706.671       8.233108
6715.409       8.330832
6724.146       7.977438
6732.883       8.024846
6741.621       8.112512
6750.358       7.700651
6759.096       8.146505
6767.833       7.757274
6776.571       7.917338
6785.308       7.879902
6794.045       7.920517
6802.783       8.574752
6811.521       14.06340
6820.258       19.44652
6828.995       20.68052
6837.732       16.31826
6846.470       16.57442
6855.208       18.59173
6863.945       18.67320
6872.682       14.58885
6881.419       12.74432
6890.157       13.35422
6898.895       14.39768
6907.632       16.91769
6916.369       16.88166
6925.107       16.60525
6933.844       17.03631
6942.582       17.23767
6951.319       15.60190
6960.057       14.20910
6968.794       14.85639
6977.531       13.52385
6986.269       12.40087
6995.006       12.55913
7003.744       12.30621
7012.481       10.69807
7021.218       9.471850
7029.956       10.20835
7038.693       10.61119
7047.431       11.01905
7056.168       9.985415
7064.905       9.791493
7073.643       10.04090
7082.380       10.03631
7091.118       9.366095
7099.855       8.658779
7108.593       9.035003
7117.330       9.460226
7126.067       9.813774
7134.805       10.11032
7143.542       10.25376
7152.280       9.799378
7161.017       9.762479
7169.754       9.692055
7178.492       9.155281
7187.229       8.591736
7195.967       8.845718
7204.704       9.136509
7213.441       10.98242
7222.179       25.42946
7230.917       38.99697
7239.654       41.09462
7248.391       29.11108
7257.129       29.44138
7265.866       38.09331
7274.604       40.67322
7283.341       30.57939
7292.079       25.70222
7300.816       31.59976
7309.553       33.65384
7318.291       36.37410
7327.028       36.64819
7335.766       34.70928
7344.503       31.65801
7353.240       30.18539
7361.978       28.78432
7370.715       24.40037
7379.453       20.38063
7388.190       23.01649
7396.927       22.34501
7405.665       17.54624
7414.402       14.89377
7423.140       16.92508
7431.877       16.41589
7440.615       14.87700
7449.352       16.39701
7458.089       22.73663
7466.827       27.42782
7475.564       25.12164
7484.302       18.70913
7493.039       13.48618
7501.776       18.66839
7510.514       29.10528
7519.251       31.87171
7527.989       24.58679
7536.726       16.64976
7545.463       17.45139
7554.201       24.26703
7562.938       26.35440
7571.676       26.51905
7580.413       20.56477
7589.151       15.96002
7597.888       13.88021
7606.625       14.44551
7615.363       16.97546
7624.100       14.49010
7632.838       12.75099
7641.575       14.16940
7650.313       16.17335
7659.050       15.16573
7667.788       13.39942
7676.525       14.81935
7685.262       19.49295
7694.000       40.29956
7702.737       56.07301
7711.475       57.79976
7720.212       38.94152
7728.949       37.16922
7737.687       48.85600
7746.424       61.95638
7755.162       77.87212
7763.899       76.21624
7772.636       76.99209
7781.374       52.20265
7790.111       45.32944
7798.849       45.73813
7807.586       47.55128
7816.324       45.19876
7825.061       39.70738
7833.798       53.37038
7842.536       70.25840
7851.273       77.87019
7860.011       65.58731
7868.748       58.27081
7877.485       45.77362
7886.223       41.61502
7894.960       62.74349
7903.698       80.08521
7912.435       81.31318
7921.172       50.20393
7929.910       36.30624
7938.647       35.88884
7947.385       51.43924
7956.122       57.41169
7964.860       58.73381
7973.597       62.86587
7982.334       59.48011
7991.072       53.31317
7999.810       41.02814
8008.547       49.91902
8017.284       47.00211
8026.021       35.64408
8034.759       25.53500
8043.497       30.80042
8052.234       30.92866
8060.971       24.58267
8069.709       17.40947
8078.446       19.21754
8087.184       21.48521
8095.921       20.29880
8104.658       16.14036
8113.396       13.73943
8122.133       15.65528
8130.871       16.27927
8139.608       15.77239
8148.346       13.19658
8157.083       12.68895
8165.820       14.81749
8174.558       18.08024
8183.295       18.37136
8192.032       16.83965
8200.771       14.76295
8209.508       12.89265
8218.245       12.79430
8226.982       13.86233
8235.720       13.58859
8244.457       14.86039
8253.194       24.13026
8261.932       55.44412
8270.669       89.72760
8279.407       113.1869
8288.145       96.29279
8296.882       64.72826
8305.619       33.64059
8314.356       32.87040
8323.094       91.99649
8331.831       132.3290
8340.568       131.1406
8349.307       73.18710
8358.044       47.79260
8366.781       45.67465
8375.519       77.83490
8384.256       89.59544
8392.993       99.05686
8401.730       82.30135
8410.468       105.9263
8419.205       106.8244
8427.943       105.1332
8436.681       83.44334
8445.418       97.71917
8454.155       79.86951
8462.893       57.28052
8471.630       37.16692
8480.367       47.49369
8489.104       56.37239
8497.843       47.04404
8506.580       25.82950
8515.317       20.72115
8524.055       28.53656
8532.792       32.58438
8541.529       28.79088
8550.267       18.64576
8559.004       15.23361
8567.741       17.45273
8576.479       21.90382
8585.217       23.14647
8593.954       29.35770
8602.691       44.98643
8611.429       61.71357
8620.166       64.89596
8628.903       61.19753
8637.641       64.68821
8646.379       69.52797
8655.116       62.67079
8663.854       46.90904
8672.591       33.20958
8681.328       24.69432
8690.065       19.68802
8698.803       16.92467
8707.540       14.46640
8716.277       14.19133
8725.016       17.85613
8733.753       51.25991
8742.490       118.4753
8751.228       182.8832
8759.965       184.2577
8768.702       140.7851
8777.439       77.29897
8786.177       41.62671
8794.915       45.91504
8803.652       142.3101
8812.390       210.3059
8821.127       211.9712
8829.864       119.8848
8838.602       68.24980
8847.339       65.66325
8856.076       90.31052
8864.813       132.5955
8873.552       143.3435
8882.289       135.1937
8891.026       133.1834
8899.764       162.5753
8908.501       152.7828
8917.238       117.6208
8925.976       88.46051
8934.713       133.8831
8943.451       128.9750
8952.188       100.6822
8960.926       54.93105
8969.663       61.06553
8978.400       90.51929
8987.138       85.52587
8995.875       60.61082
9004.612       28.31373
9013.350       30.43361
9022.088       49.20182
9030.825       59.19416
9039.563       48.91606
9048.300       30.39851
9057.037       19.43106
9065.774       20.66423
9074.512       27.44993
9083.249       32.44199
9091.987       26.49896
9100.725       18.33109
9109.462       12.57585
9118.199       13.26459
9126.937       17.93991
9135.674       22.26019
9144.411       23.17913
9153.148       18.77816
9161.887       12.85617
9170.624       11.07581
9179.361       10.94984
9188.099       14.62662
9196.836       18.17179
9205.573       20.42736
9214.311       19.04270
9223.048       16.28051
9231.785       23.25550
9240.523       37.32136
9249.261       41.16006
9257.998       34.43560
9266.735       24.05228
9275.473       51.04492
9284.210       154.1674
9292.947       240.0590
9301.685       254.6973
9310.423       178.6463
9319.160       97.89015
9327.897       46.50620
9336.635       36.42916
9345.372       119.3766
9354.109       229.8513
9362.847       257.2212
9371.584       177.9606
9380.321       83.42435
9389.060       89.01922
9397.797       108.9959
9406.534       147.8233
9415.271       228.4313
9424.009       250.0175
9432.746       254.1638
9441.483       189.9278
9450.221       250.0627
9458.959       239.8593
9467.696       206.9919
9476.434       146.2813
9485.171       138.0829
9493.908       164.8792
9502.646       132.1715
9511.383       101.7178
9520.120       74.17988
9528.857       91.17809
9537.596       150.9508
9546.333       179.0685
9555.070       147.8242
9563.808       72.22876
9572.545       36.74028
9581.282       46.13096
9590.020       65.77846
9598.757       81.95174
9607.495       64.87979
9616.232       43.71873
9624.970       32.06453
9633.707       42.52062
9642.444       71.99242
9651.182       117.7141
9659.919       148.6488
9668.656       177.0505
9677.394       185.9515
9686.132       207.3099
9694.869       221.8857
9703.606       203.6005
9712.344       172.3197
9721.081       111.9683
9729.818       77.00273
9738.556       42.61523
9747.293       28.24694
9756.031       89.03938
9764.769       241.7619
9773.506       140.6441
9782.243       0.000000
9790.980       0.000000
