# author : Kieran Leschinski
# source : skycalc website
# date_created : 2019-07-24
# date_modified : 2019-07-24
# status : Design
# type : atmosphere:ter_curve
# pwv : 2.5
# action : transmission
# wavelength_unit : nm
# emission_unit : ph s-1 m-2 um-1 arcsec-2
# changes :
# - 2019-07-24 (KL) Created file
#
wavelength  transmission    emission
0.7000      0.9325          71.79600
0.7010      0.9327          82.49900
0.7020      0.9340          45.95200
0.7030      0.9337          49.94300
0.7040      0.9366          81.34300
0.7050      0.9371          48.35100
0.7060      0.9388          82.26600
0.7070      0.9392          92.11200
0.7080      0.9395          4.8510 0
0.7090      0.9409          0.8700 0
0.7100      0.9409          55.16400
0.7110      0.9414          61.13200
0.7120      0.9420          54.67300
0.7130      0.9420          86.11700
0.7140      0.9418          73.10800
0.7150      0.9406          97.88800
0.7160      0.9404          71.86900
0.7170      0.9198          62.69100
0.7180      0.9022          73.31800
0.7190      0.8777          17.85200
0.7200      0.8926          30.00100
0.7210      0.9114          29.24500
0.7220      0.9388          49.33600
0.7230      0.9207          58.78900
0.7240      0.9031          306.8900
0.7250      0.9056          123.6100
0.7260      0.9196          49.58700
0.7270      0.9137          97.09600
0.7280      0.9110          579.3700
0.7290      0.9183          94.28600
0.7300      0.9311          58.70300
0.7310      0.9195          33.45100
0.7320      0.9323          281.4900
0.7330      0.9412          4.3940 0
0.7340      0.9429          459.8000
0.7350      0.9427          2.6420 0
0.7360      0.9436          89.84000
0.7370      0.9433          337.7100
0.7380      0.9472          79.97000
0.7390      0.9464          95.63200
0.7400      0.9485          26.87600
0.7410      0.9493          57.77600
0.7420      0.9500          75.29500
0.7430      0.9503          57.80500
0.7440      0.9508          10.54900
0.7450      0.9511          51.94900
0.7460      0.9512          94.86300
0.7470      0.9514          94.68800
0.7480      0.9516          97.62900
0.7490      0.9519          59.65600
0.7500      0.9522          26.41900
0.7510      0.9525          42.48900
0.7520      0.9528          65.00600
0.7530      0.9532          319.1100
0.7540      0.9534          3.5500 0
0.7550      0.9537          58.37900
0.7560      0.9540          94.04800
0.7570      0.9542          14.90000
0.7580      0.9545          98.03600
0.7590      0.9527          99.95600
0.7600      0.3905          43.24100
0.7610      0.2917          52.63700
0.7620      0.6855          85.97400
0.7630      0.4593          26.40700
0.7640      0.5883          5.5650 0
0.7650      0.6715          27.08100
0.7660      0.7664          84.64800
0.7670      0.8479          91.83400
0.7680      0.9149          49.71300
0.7690      0.9314          97.34600
0.7700      0.9466          79.46900
0.7710      0.9534          369.8000
0.7720      0.9550          747.3400
0.7730      0.9556          41.55800
0.7740      0.9560          2.2830 0
0.7750      0.9564          33.04000
0.7760      0.9566          170.2100
0.7770      0.9568          21.88000
0.7780      0.9569          78.72000
0.7790      0.9570          91.96000
0.7800      0.9572          676.1200
0.7810      0.9574          86.77900
0.7820      0.9576          62.44000
0.7830      0.9578          19.73800
0.7840      0.9579          40.37400
0.7850      0.9580          34.70300
0.7860      0.9581          634.0800
0.7870      0.9566          295.5400
0.7880      0.9564          88.56000
0.7890      0.9555          15.53700
0.7900      0.9523          62.69900
0.7910      0.9552          23.11000
0.7920      0.9556          106.6800
0.7930      0.9553          99.91000
0.7940      0.9594          35.43200
0.7950      0.9587          82.63400
0.7960      0.9546          79.03800
0.7970      0.9550          69.86000
0.7980      0.9588          184.3900
0.7990      0.9578          31.11500
0.8000      0.9565          98.72000
0.8010      0.9564          14.44700
0.8020      0.9566          86.66900
0.8030      0.9564          817.8000
0.8040      0.9572          18.15000
0.8050      0.9580          83.16500
0.8060      0.9599          23.82000
0.8070      0.9595          3.0770 0
0.8080      0.9600          35.24200
0.8090      0.9587          37.75800
0.8100      0.9574          99.48000
0.8110      0.9560          75.39500
0.8120      0.9524          95.74800
0.8130      0.9494          22.89300
0.8140      0.9265          76.47100
0.8150      0.9255          97.28700
0.8160      0.9001          66.85300
0.8170      0.9054          68.30700
0.8180      0.9043          65.62700
0.8190      0.9273          13.17000
0.8200      0.9142          16.78600
0.8210      0.9533          23.10500
0.8220      0.9468          7.8800 0
0.8230      0.8561          45.43200
0.8240      0.9417          22.30500
0.8250      0.9455          35.49800
0.8260      0.9367          13.04000
0.8270      0.9495          12.16200
0.8280      0.9132          733.5000
0.8290      0.9380          953.8300
0.8300      0.9379          267.9800
0.8310      0.9394          2.8300 0
0.8320      0.9306          63.01700
0.8330      0.9556          14.26300
0.8340      0.9481          64.62900
0.8350      0.9609          307.3500
0.8360      0.9540          763.3200
0.8370      0.9619          58.02500
0.8380      0.9600          440.4400
0.8390      0.9622          83.07800
0.8400      0.9630          291.4800
0.8410      0.9621          37.63300
0.8420      0.9635          532.6200
0.8430      0.9647          301.8600
0.8440      0.9639          93.90600
0.8450      0.9654          464.3200
0.8460      0.9655          87.10700
0.8470      0.9662          824.6900
0.8480      0.9655          3.8730 0
0.8490      0.9656          42.47200
0.8500      0.9659          277.3000
0.8510      0.9648          699.2400
0.8520      0.9656          84.67500
0.8530      0.9660          51.83600
0.8540      0.9655          520.1200
0.8550      0.9665          72.68000
0.8560      0.9662          48.34200
0.8570      0.9667          76.33400
0.8580      0.9668          59.10100
0.8590      0.9670          82.85000
0.8600      0.9674          41.79500
0.8610      0.9675          28.32500
0.8620      0.9677          38.13000
0.8630      0.9678          832.4800
0.8640      0.9681          468.3900
0.8650      0.9682          406.9400
0.8660      0.9683          21.06000
0.8670      0.9684          880.2700
0.8680      0.9686          306.9100
0.8690      0.9687          8.7860 0
0.8700      0.9688          57.47000
0.8710      0.9689          13.64500
0.8720      0.9691          83.30700
0.8730      0.9692          2.0340 0
0.8740      0.9692          27.10600
0.8750      0.9693          22.04300
0.8760      0.9694          203.3600
0.8770      0.9695          464.2900
0.8780      0.9695          722.0200
0.8790      0.9696          543.9500
0.8800      0.9697          88.00400
0.8810      0.9694          24.48400
0.8820      0.9694          78.47000
0.8830      0.9697          777.4500
0.8840      0.9697          214.5200
0.8850      0.9697          356.4000
0.8860      0.9687          49.07900
0.8870      0.9694          233.6800
0.8880      0.9684          81.94800
0.8890      0.9703          49.04000
0.8900      0.9688          67.58000
0.8910      0.9697          534.7700
0.8920      0.9681          409.9700
0.8930      0.9635          37.55000
0.8940      0.9603          55.89100
0.8950      0.9517          157.2000
0.8960      0.9345          537.9300
0.8970      0.9045          62.65200
0.8980      0.9197          97.18000
0.8990      0.8460          687.4800
0.9000      0.9240          758.6800
0.9010      0.8951          38.00000
0.9020      0.9128          1.2960 0
0.9030      0.9016          3.0260 0
0.9040      0.9612          131.3800
0.9050      0.9548          667.6400
0.9060      0.9416          8.5720 0
0.9070      0.8963          7.9920 0
0.9080      0.9056          60.05900
0.9090      0.9154          10.97500
0.9100      0.9075          24.99000
0.9110      0.9230          15.45300
0.9120      0.9184          56.91100
0.9130      0.9096          51.71800
0.9140      0.9014          88.21600
0.9150      0.9368          0.3860 0
0.9160      0.8837          54.38100
0.9170      0.9434          73.84300
0.9180      0.8950          49.07600
0.9190      0.9393          70.89100
0.9200      0.9395          73.08500
0.9210      0.9574          95.25200
0.9220      0.9386          48.65400
0.9230      0.9554          51.21000
0.9240      0.9447          74.22100
0.9250      0.9378          71.18100
0.9260      0.9474          78.47700
0.9270      0.9599          87.73100
0.9280      0.9101          57.66000
0.9290      0.9034          55.01700
0.9300      0.8385          14.83400
0.9310      0.8015          18.11000
0.9320      0.7320          963.6400
0.9330      0.6919          219.0100
0.9340      0.6420          164.1800
0.9350      0.6529          99.73300
0.9360      0.5914          55.82900
0.9370      0.6297          79.95800
0.9380      0.6831          357.1000
0.9390      0.8112          31.15800
0.9400      0.8648          563.8100
0.9410      0.8180          96.40500
0.9420      0.8259          225.8300
0.9430      0.6929          19.00500
0.9440      0.7121          714.6800
0.9450      0.8083          88.90100
0.9460      0.6576          231.9200
0.9470      0.8253          8.6380 0
0.9480      0.7077          595.1300
0.9490      0.8950          48.55800
0.9500      0.6050          67.55700
0.9510      0.9196          124.9000
0.9520      0.7303          925.0100
0.9530      0.7974          88.78100
0.9540      0.8486          20.93500
0.9550      0.8078          96.91800
0.9560      0.7892          497.7300
0.9570      0.7609          693.9500
0.9580      0.8449          23.84500
0.9590      0.8215          9.2010 0
0.9600      0.8544          30.60800
0.9610      0.8588          1.9200 0
0.9620      0.8516          199.8600
0.9630      0.8792          47.75700
0.9640      0.8663          40.18800
0.9650      0.8786          52.29100
0.9660      0.8920          37.13400
0.9670      0.8855          350.0900
0.9680      0.9343          638.3200
0.9690      0.9555          445.7200
0.9700      0.9372          802.6100
0.9710      0.9625          947.9000
0.9720      0.9458          705.4500
0.9730      0.9342          89.87800
0.9740      0.9210          127.3100
0.9750      0.9116          87.98800
0.9760      0.9135          78.12200
0.9770      0.9381          94.89800
0.9780      0.9416          97.68400
0.9790      0.9351          928.3000
0.9800      0.9258          626.2800
0.9810      0.9650          986.9800
0.9820      0.9613          40.44800
0.9830      0.9508          78.88300
0.9840      0.9730          22.55300
0.9850      0.9587          171.9400
0.9860      0.9740          24.33100
0.9870      0.9725          944.7900
0.9880      0.9711          36.89600
0.9890      0.9758          30.26800
0.9900      0.9722          686.2800
0.9910      0.9754          27.65700
0.9920      0.9760          221.4800
0.9930      0.9738          29.33100
0.9940      0.9762          540.3600
0.9950      0.9768          884.9400
0.9960      0.9766          743.8000
0.9970      0.9767          34.42900
0.9980      0.9768          803.0400
0.9990      0.9768          35.35500
1.0000      0.9760          1830.980
1.0010      0.9770          1432.010
1.0020      0.9743          10885.80
1.0030      0.9769          3659.040
1.0040      0.9762          747.5590
1.0050      0.9774          1816.870
1.0060      0.9768          2719.090
1.0070      0.9772          1931.740
1.0080      0.9766          640.0340
1.0090      0.9762          5973.470
1.0100      0.9756          771.9680
1.0110      0.9776          2812.130
1.0120      0.9769          645.9660
1.0130      0.9777          7195.770
1.0140      0.9777          781.5870
1.0150      0.9778          1193.110
1.0160      0.9775          4191.820
1.0170      0.9775          9776.900
1.0180      0.9782          2767.920
1.0190      0.9767          8325.840
1.0200      0.9781          695.8260
1.0210      0.9781          14536.20
1.0220      0.9778          650.1950
1.0230      0.9777          6993.600
1.0240      0.9765          652.1360
1.0250      0.9783          654.3300
1.0260      0.9780          654.8030
1.0270      0.9782          1341.920
1.0280      0.9780          656.7710
1.0290      0.9780          29415.50
1.0300      0.9785          10230.00
1.0310      0.9783          3830.440
1.0320      0.9786          659.0310
1.0330      0.9785          1574.760
1.0340      0.9786          950.0880
1.0350      0.9787          6290.000
1.0360      0.9786          1225.220
1.0370      0.9783          693.5140
1.0380      0.9785          18736.80
1.0390      0.9785          696.8720
1.0400      0.9785          7448.330
1.0410      0.9784          715.7280
1.0420      0.9785          19807.70
1.0430      0.9785          894.5540
1.0440      0.9784          726.9060
1.0450      0.9783          5893.150
1.0460      0.9782          708.9190
1.0470      0.9781          13260.90
1.0480      0.9779          694.2490
1.0490      0.9773          686.6190
1.0500      0.9769          705.7890
1.0510      0.9771          3511.720
1.0520      0.9765          663.5050
1.0530      0.9762          6673.500
1.0540      0.9758          647.0950
1.0550      0.9751          639.3520
1.0560      0.9744          631.7920
1.0570      0.9735          622.6530
1.0580      0.9725          1722.470
1.0590      0.9716          2787.890
1.0600      0.9710          606.9400
1.0610      0.9706          589.8190
1.0620      0.9700          582.7290
1.0630      0.9693          590.4760
1.0640      0.9687          931.2890
1.0650      0.9677          908.9030
1.0660      0.9678          916.7840
1.0670      0.9685          621.2550
1.0680      0.9679          628.7620
1.0690      0.9700          1709.800
1.0700      0.9716          3053.060
1.0710      0.9737          7468.390
1.0720      0.9737          3351.480
1.0730      0.9750          11642.50
1.0740      0.9769          684.2240
1.0750      0.9736          18078.00
1.0760      0.9776          701.5360
1.0770      0.9753          787.6910
1.0780      0.9758          5128.680
1.0790      0.9793          728.4940
1.0800      0.9737          759.4840
1.0810      0.9746          752.9920
1.0820      0.9786          749.9430
1.0830      0.9782          37452.00
1.0840      0.9723          13900.30
1.0850      0.9773          1149.760
1.0860      0.9620          4772.710
1.0870      0.9759          853.7710
1.0880      0.9785          1881.060
1.0890      0.9745          679.7800
1.0900      0.9672          8169.360
1.0910      0.9772          661.5190
1.0920      0.9801          652.9640
1.0930      0.9534          24405.50
1.0940      0.9767          623.9900
1.0950      0.9650          9763.370
1.0960      0.9591          596.9000
1.0970      0.9792          608.6270
1.0980      0.9602          26471.20
1.0990      0.9627          569.3580
1.1000      0.9486          553.2790
1.1010      0.9530          7738.400
1.1020      0.9506          533.1110
1.1030      0.9447          18070.90
1.1040      0.9367          520.7850
1.1050      0.9662          535.2610
1.1060      0.9211          506.8420
1.1070      0.9520          4529.510
1.1080      0.9272          504.6850
1.1090      0.9242          9330.200
1.1100      0.9544          514.4500
1.1110      0.8531          455.7680
1.1120      0.9058          481.2360
1.1130      0.8207          432.6010
1.1140      0.8501          2121.260
1.1150      0.7754          404.0150
1.1160      0.7713          3567.640
1.1170      0.5718          292.6570
1.1180      0.7695          394.2590
1.1190      0.6449          326.6730
1.1200      0.6754          339.7710
1.1210      0.7795          461.1150
1.1220      0.5556          518.6350
1.1230      0.6898          697.5130
1.1240      0.5915          290.7140
1.1250      0.6868          341.0780
1.1260      0.4966          246.2880
1.1270      0.7542          381.0760
1.1280      0.6763          344.5470
1.1290      0.6724          1664.950
1.1300      0.5964          3399.980
1.1310      0.9088          9465.420
1.1320      0.8026          3603.000
1.1330      0.7759          12768.20
1.1340      0.5246          279.3170
1.1350      0.2583          10723.90
1.1360      0.6830          372.2920
1.1370      0.9128          504.0470
1.1380      0.7966          1946.400
1.1390      0.8362          509.4220
1.1400      0.8057          452.6220
1.1410      0.7800          437.6860
1.1420      0.7816          438.5910
1.1430      0.9074          510.5350
1.1440      0.6426          35927.60
1.1450      0.7167          15204.90
1.1460      0.7829          901.3300
1.1470      0.5718          4788.430
1.1480      0.8305          659.4600
1.1490      0.7991          1896.630
1.1500      0.6577          366.5300
1.1510      0.7861          885.7460
1.1520      0.8358          862.7370
1.1530      0.7387          411.6220
1.1540      0.7280          27218.10
1.1550      0.8690          565.9310
1.1560      0.8302          462.5670
1.1570      0.8717          6430.260
1.1580      0.8547          479.4170
1.1590      0.8788          29340.40
1.1600      0.8366          463.1690
1.1610      0.9116          504.4590
1.1620      0.9086          501.8520
1.1630      0.9613          9124.000
1.1640      0.9325          515.5610
1.1650      0.9292          20775.70
1.1660      0.9230          509.8520
1.1670      0.9361          517.1580
1.1680      0.9419          520.4700
1.1690      0.9578          528.6120
1.1700      0.9592          5704.790
1.1710      0.9533          524.8150
1.1720      0.9535          11941.70
1.1730      0.9634          530.9260
1.1740      0.8979          493.8610
1.1750      0.9557          520.0580
1.1760      0.9750          523.9150
1.1770      0.9686          2804.510
1.1780      0.9080          476.4750
1.1790      0.9798          5114.210
1.1800      0.9425          486.7520
1.1810      0.9631          492.3070
1.1820      0.8809          443.9680
1.1830      0.9681          482.1480
1.1840      0.9421          462.0940
1.1850      0.9395          1231.710
1.1860      0.9745          469.9150
1.1870      0.9664          1915.890
1.1880      0.9003          421.3630
1.1890      0.9515          440.7660
1.1900      0.9691          444.8870
1.1910      0.9627          437.2920
1.1920      0.9718          436.7310
1.1930      0.9588          425.6860
1.1940      0.9708          635.9550
1.1950      0.9669          773.6100
1.1960      0.9598          409.0900
1.1970      0.9770          2889.920
1.1980      0.9609          4871.930
1.1990      0.9345          8584.040
1.2000      0.9653          4160.690
1.2010      0.9614          14976.90
1.2020      0.9574          6215.210
1.2030      0.9649          16589.70
1.2040      0.9012          413.9940
1.2050      0.9491          354.9030
1.2060      0.9763          6053.870
1.2070      0.9501          345.4700
1.2080      0.9584          341.0250
1.2090      0.9558          338.7960
1.2100      0.9651          342.0300
1.2110      0.9583          339.0440
1.2120      0.9621          44173.40
1.2130      0.9774          1671.060
1.2140      0.9644          15638.00
1.2150      0.9608          4879.600
1.2160      0.9791          1699.980
1.2170      0.9729          549.5740
1.2180      0.9705          2100.210
1.2190      0.9629          330.6950
1.2200      0.9696          8948.740
1.2210      0.9767          818.9840
1.2220      0.9664          327.5340
1.2230      0.9686          28968.80
1.2240      0.9682          345.8320
1.2250      0.9745          441.9400
1.2260      0.9786          11572.60
1.2270      0.9693          320.8800
1.2280      0.9787          321.9850
1.2290      0.9790          32580.20
1.2300      0.9758          318.8990
1.2310      0.9801          318.9630
1.2320      0.9801          317.2560
1.2330      0.9753          9709.600
1.2340      0.9803          319.2400
1.2350      0.9795          23664.80
1.2360      0.9797          311.8020
1.2370      0.9782          309.7570
1.2380      0.9792          308.8270
1.2390      0.9789          308.5920
1.2400      0.9788          6041.820
1.2410      0.9776          310.1730
1.2420      0.9781          13056.40
1.2430      0.9777          317.4650
1.2440      0.9770          339.5600
1.2450      0.9766          403.8040
1.2460      0.9762          307.8470
1.2470      0.9750          567.3670
1.2480      0.9735          3588.240
1.2490      0.9741          307.7870
1.2500      0.9712          7000.750
1.2510      0.9687          2591.310
1.2520      0.9711          306.3100
1.2530      0.9642          3713.030
1.2540      0.9602          4322.620
1.2550      0.9669          305.6350
1.2560      0.9540          4065.990
1.2570      0.9496          4458.860
1.2580      0.9596          764.2850
1.2590      0.9385          6533.820
1.2600      0.9406          8034.080
1.2610      0.9111          11358.60
1.2620      0.9212          6069.780
1.2630      0.8808          7602.430
1.2640      0.8620          5219.580
1.2650      0.8954          1865.460
1.2660      0.8788          5306.810
1.2670      0.8880          9652.270
1.2680      0.8645          14683.70
1.2690      0.6901          35469.90
1.2700      0.8867          27393.70
1.2710      0.9168          9691.080
1.2720      0.9197          5878.110
1.2730      0.9184          10414.40
1.2740      0.9207          11265.90
1.2750      0.9355          13375.80
1.2760      0.9355          23570.10
1.2770      0.9499          7562.490
1.2780      0.9563          26311.50
1.2790      0.9622          4891.440
1.2800      0.9617          12286.70
1.2810      0.9698          16338.80
1.2820      0.9693          4921.500
1.2830      0.9763          5915.450
1.2840      0.9774          453.7480
1.2850      0.9736          3217.730
1.2860      0.9798          344.3730
1.2870      0.9756          2116.670
1.2880      0.9766          325.4150
1.2890      0.9725          1307.460
1.2900      0.9798          4269.150
1.2910      0.9812          37897.60
1.2920      0.9727          16168.80
1.2930      0.9784          508.0680
1.2940      0.9797          6355.130
1.2950      0.9786          386.5850
1.2960      0.9690          521.5760
1.2970      0.9591          2151.110
1.2980      0.9786          338.1640
1.2990      0.9735          8232.040
1.3000      0.9626          392.7840
1.3010      0.9595          848.6300
1.3020      0.9777          27036.70
1.3030      0.9570          306.1570
1.3040      0.9220          316.2200
1.3050      0.9788          11142.20
1.3060      0.9699          311.3320
1.3070      0.9176          294.3910
1.3080      0.9419          302.4550
1.3090      0.9763          31110.00
1.3100      0.9137          322.1420
1.3110      0.9329          299.1590
1.3120      0.9524          304.7450
1.3130      0.9396          9480.760
1.3140      0.8851          284.2480
1.3150      0.9182          295.4740
1.3160      0.9472          16715.00
1.3170      0.9185          293.9600
1.3180      0.9385          301.7000
1.3190      0.8852          284.7690
1.3200      0.8634          280.6580
1.3210      0.9173          5998.450
1.3220      0.9570          318.1810
1.3230      0.8549          286.5610
1.3240      0.8886          13460.20
1.3250      0.9559          327.2600
1.3260      0.9267          319.8580
1.3270      0.8996          313.1540
1.3280      0.8622          302.7230
1.3290      0.8171          288.8590
1.3300      0.8840          1553.990
1.3310      0.7707          276.4910
1.3320      0.7713          2715.580
1.3330      0.8793          1768.420
1.3340      0.7771          287.8790
1.3350      0.8717          326.7990
1.3360      0.7878          297.1840
1.3370      0.8289          315.6200
1.3380      0.8240          316.3240
1.3390      0.8172          316.0990
1.3400      0.7914          810.4260
1.3410      0.8021          315.2210
1.3420      0.8491          2404.740
1.3430      0.8304          332.6960
1.3440      0.6176          248.1790
1.3450      0.6970          283.0050
1.3460      0.6973          285.2780
1.3470      0.6576          270.9790
1.3480      0.2644          108.2600
1.3490      0.5057          210.7590
1.3500      0.4626          190.0140
1.3510      0.3828          334.6090
1.3520      0.3300          131.8070
1.3530      0.2561          463.8940
1.3540      0.2321          89.99510
1.3550      0.0760          28.74330
1.3560      0.1277          47.72480
1.3570      0.2082          77.29770
1.3580      0.1042          37.98120
1.3590      0.1078          38.76010
1.3600      0.0888          31.44710
1.3610      0.0252          8.8937 0
1.3620      0.0012          0.7817 0
1.3630      0.1151          40.03710
1.3640      0.0805          30.52850
1.3650      0.0100          3.5650 0
1.3660      0.1633          273.1170
1.3670      0.0968          1720.310
1.3680      0.0071          2.5261 0
1.3690      0.0723          443.6730
1.3700      0.0944          28.87140
1.3710      0.0335          20.83940
1.3720      0.0516          66.29400
1.3730      0.1255          36.74500
1.3740      0.2027          58.70700
1.3750      0.2048          836.4420
1.3760      0.2269          63.47180
1.3770      0.1170          33.24460
1.3780      0.3904          106.7410
1.3790      0.1046          28.34970
1.3800      0.1861          51.03660
1.3810      0.0338          9.5146 0
1.3820      0.0812          476.6910
1.3830      0.0238          6.9401 0
1.3840      0.0672          3839.130
1.3850      0.0518          14.78420
1.3860      0.1230          67.19380
1.3870      0.3018          2813.870
1.3880      0.0217          6.6628 0
1.3890      0.3784          236.7790
1.3900      0.3085          1184.460
1.3910      0.3243          2076.110
1.3920      0.1270          37.96450
1.3930      0.2081          65.01130
1.3940      0.2583          96.02630
1.3950      0.0181          53.43600
1.3960      0.0334          11.02470
1.3970      0.1423          43.85350
1.3980      0.4393          385.8660
1.3990      0.3486          5102.900
1.4000      0.0382          24.24920
1.4010      0.0201          6.9092 0
1.4020      0.2909          15854.30
1.4030      0.3462          111.5480
1.4040      0.1903          110.6110
1.4050      0.0329          11.14540
1.4060      0.4831          1931.860
1.4070      0.0488          195.1910
1.4080      0.3727          123.8900
1.4090      0.1653          15364.10
1.4100      0.1892          6903.390
1.4110      0.3199          2082.010
1.4120      0.3106          106.3110
1.4130      0.6343          29486.70
1.4140      0.1768          60.49550
1.4150      0.1162          40.16020
1.4160      0.5951          23793.20
1.4170      0.5067          178.1100
1.4180      0.4146          146.3000
1.4190      0.1308          35787.10
1.4200      0.3329          118.5160
1.4210      0.4245          152.4390
1.4220      0.6025          217.3030
1.4230      0.3028          1107.430
1.4240      0.3987          145.0460
1.4250      0.5973          219.2660
1.4260      0.4273          156.9100
1.4270      0.5776          3053.230
1.4280      0.3441          127.4610
1.4290      0.4997          5994.130
1.4300      0.6387          240.9400
1.4310      0.5244          198.3910
1.4320      0.2145          81.31090
1.4330      0.4882          186.7210
1.4340      0.3971          13165.50
1.4350      0.5663          301.0660
1.4360      0.5260          52349.10
1.4370      0.5125          12691.40
1.4380      0.3260          178.2750
1.4390      0.5695          746.6850
1.4400      0.5123          3274.000
1.4410      0.5268          209.1030
1.4420      0.5628          362.5490
1.4430      0.5184          741.4380
1.4440      0.6506          263.1390
1.4450      0.6126          254.8450
1.4460      0.2984          174.6050
1.4470      0.5774          4667.000
1.4480      0.7964          360.0500
1.4490      0.7881          365.0520
1.4500      0.4947          331.8970
1.4510      0.2618          126.8160
1.4520      0.6414          107712.0
1.4530      0.7320          729.4010
1.4540      0.8322          432.3810
1.4550      0.6422          343.0270
1.4560      0.7983          44552.70
1.4570      0.8201          454.4420
1.4580      0.7804          441.7760
1.4590      0.8808          509.2330
1.4600      0.6736          41012.00
1.4610      0.7364          49769.60
1.4620      0.8372          476.1150
1.4630      0.5448          321.1930
1.4640      0.8896          613.6170
1.4650      0.6232          471.7280
1.4660      0.6708          8925.580
1.4670      0.5950          15109.20
1.4680      0.7311          481.9470
1.4690      0.7838          428.8780
1.4700      0.5847          59459.60
1.4710      0.3652          877.6260
1.4720      0.5826          313.1930
1.4730      0.6772          361.8840
1.4740      0.7312          11346.60
1.4750      0.9076          479.7150
1.4760      0.6573          6402.600
1.4770      0.6771          15167.40
1.4780      0.6124          36068.60
1.4790      0.8027          414.7640
1.4800      0.5893          32144.90
1.4810      0.7963          13945.50
1.4820      0.6224          316.5220
1.4830      0.8644          75967.00
1.4840      0.7919          397.4730
1.4850      0.8031          470.0970
1.4860      0.7881          27836.20
1.4870      0.6838          513.4110
1.4880      0.7475          621.4570
1.4890      0.9214          106503.0
1.4900      0.8263          827.6840
1.4910      0.8608          12826.40
1.4920      0.8639          1009.970
1.4930      0.8862          37336.00
1.4940      0.9112          1221.950
1.4950      0.8795          1248.030
1.4960      0.8854          1337.100
1.4970      0.9064          1436.230
1.4980      0.8863          1421.780
1.4990      0.9323          1513.810
1.5000      0.9519          1564.000
1.5010      0.9618          3179.900
1.5020      0.9423          1582.300
1.5030      0.9196          4431.280
1.5040      0.8488          1456.760
1.5050      0.9102          31199.80
1.5060      0.9727          283710.0
1.5070      0.9646          96437.80
1.5080      0.9545          4914.270
1.5090      0.8848          15645.50
1.5100      0.9748          1788.920
1.5110      0.9709          10835.90
1.5120      0.9690          1815.470
1.5130      0.9635          1990.000
1.5140      0.9449          2227.760
1.5150      0.9775          4219.550
1.5160      0.9653          1881.870
1.5170      0.9655          1901.070
1.5180      0.9597          2269.530
1.5190      0.9574          60754.40
1.5200      0.9737          1973.550
1.5210      0.9890          2023.050
1.5220      0.9786          1968.280
1.5230      0.9854          1973.900
1.5240      0.9864          204562.0
1.5250      0.9761          1822.720
1.5260      0.9772          1781.930
1.5270      0.9732          1783.810
1.5280      0.9872          1759.210
1.5290      0.9825          74264.50
1.5300      0.9790          1609.470
1.5310      0.9780          1564.670
1.5320      0.9858          1534.140
1.5330      0.9810          210844.0
1.5340      0.9779          1434.990
1.5350      0.9745          1386.290
1.5360      0.9784          1348.840
1.5370      0.9827          1311.390
1.5380      0.9862          1274.740
1.5390      0.9821          1252.940
1.5400      0.9798          57131.90
1.5410      0.9825          1303.750
1.5420      0.9791          1092.360
1.5430      0.9846          136692.0
1.5440      0.9837          1529.010
1.5450      0.9880          994.2070
1.5460      0.9875          5222.220
1.5470      0.9886          3299.380
1.5480      0.9894          943.8080
1.5490      0.9898          926.9740
1.5500      0.9896          16574.40
1.5510      0.9891          30000.20
1.5520      0.9880          8826.560
1.5530      0.9899          860.2650
1.5540      0.9894          63164.10
1.5550      0.9899          44220.40
1.5560      0.9903          809.7240
1.5570      0.9902          21154.20
1.5580      0.9902          852.7080
1.5590      0.9899          759.0230
1.5600      0.9900          87797.40
1.5610      0.9900          725.5740
1.5620      0.9891          708.4220
1.5630      0.9898          48375.60
1.5640      0.9892          674.5120
1.5650      0.9903          54591.00
1.5660      0.9895          77412.60
1.5670      0.9885          1018.780
1.5680      0.9840          2990.940
1.5690      0.9698          1191.160
1.5700      0.9528          35176.00
1.5710      0.9160          3743.150
1.5720      0.9135          3746.230
1.5730      0.9130          2328.340
1.5740      0.9305          4720.930
1.5750      0.9726          5597.930
1.5760      0.9650          5893.750
1.5770      0.9284          7006.620
1.5780      0.9384          9155.970
1.5790      0.9397          4106.320
1.5800      0.9427          9650.530
1.5810      0.9478          20407.00
1.5820      0.9678          1184.640
1.5830      0.9790          316678.0
1.5840      0.9812          11956.40
1.5850      0.9847          103892.0
1.5860      0.9869          5315.990
1.5870      0.9881          36296.00
1.5880      0.9899          1849.620
1.5890      0.9904          2869.830
1.5900      0.9897          12185.60
1.5910      0.9906          1814.970
1.5920      0.9893          2088.820
1.5930      0.9905          3917.620
1.5940      0.9898          872.2210
1.5950      0.9901          1269.550
1.5960      0.9895          705.6140
1.5970      0.9880          63835.60
1.5980      0.9851          1024.170
1.5990      0.9744          705.1310
1.6000      0.9502          705.2900
1.6010      0.9348          711.7640
1.6020      0.9159          795.2020
1.6030      0.9117          210849.0
1.6040      0.9217          862.0330
1.6050      0.9597          805.1660
1.6060      0.9722          1015.620
1.6070      0.9466          833.0740
1.6080      0.9390          80172.70
1.6090      0.9364          858.3450
1.6100      0.9376          876.2750
1.6110      0.9443          900.5680
1.6120      0.9582          933.0750
1.6130      0.9666          225023.0
1.6140      0.9758          990.1250
1.6150      0.9802          1011.800
1.6160      0.9831          1032.380
1.6170      0.9850          1053.780
1.6180      0.9871          1076.610
1.6190      0.9869          62437.20
1.6200      0.9892          1123.300
1.6210      0.9888          1156.950
1.6220      0.9893          1160.490
1.6230      0.9901          75918.90
1.6240      0.9886          75444.90
1.6250      0.9902          1513.770
1.6260      0.9885          1232.150
1.6270      0.9888          2303.950
1.6280      0.9876          1875.890
1.6290      0.9881          1242.060
1.6300      0.9877          5878.980
1.6310      0.9851          1181.070
1.6320      0.9882          36996.30
1.6330      0.9822          1121.010
1.6340      0.9874          17188.10
1.6350      0.9777          72859.20
1.6360      0.9885          9128.310
1.6370      0.9877          1014.440
1.6380      0.9696          965.4230
1.6390      0.9855          43255.00
1.6400      0.9591          899.6930
1.6410      0.9843          20302.80
1.6420      0.9802          862.8840
1.6430      0.9547          813.3580
1.6440      0.9820          82011.30
1.6450      0.9849          14032.40
1.6460      0.9530          731.2630
1.6470      0.9865          728.5530
1.6480      0.9541          59891.10
1.6490      0.9792          666.9470
1.6500      0.9819          98057.50
1.6510      0.9528          594.0380
1.6520      0.9831          584.4520
1.6530      0.9863          558.1880
1.6540      0.9629          518.3180
1.6550      0.9861          35372.60
1.6560      0.9852          473.3550
1.6570      0.9757          440.9570
1.6580      0.9897          418.6880
1.6590      0.9836          4413.080
1.6600      0.9896          361.4690
1.6610      0.9882          7741.050
1.6620      0.9818          362.6190
1.6630      0.9882          366.6110
1.6640      0.9897          368.8060
1.6650      0.9600          359.7270
1.6660      0.8894          336.4060
1.6670      0.9653          364.6140
1.6680      0.9854          373.1150
1.6690      0.9865          284858.0
1.6700      0.9894          8739.250
1.6710      0.9837          93468.80
1.6720      0.9898          3669.650
1.6730      0.9903          32831.60
1.6740      0.9768          381.0150
1.6750      0.9888          1187.860
1.6760      0.9899          11551.80
1.6770      0.9883          389.6030
1.6780      0.9712          385.6220
1.6790      0.9909          745.6720
1.6800      0.9903          2656.670
1.6810      0.9767          390.4340
1.6820      0.9898          396.7720
1.6830      0.9905          408.9730
1.6840      0.9652          46530.70
1.6850      0.9898          895.3460
1.6860      0.9903          445.2800
1.6870      0.9741          449.9610
1.6880      0.9898          467.9560
1.6890      0.9881          646.3260
1.6900      0.9894          190868.0
1.6910      0.9646          765.1450
1.6920      0.9809          510.1950
1.6930      0.9902          525.7490
1.6940      0.9785          531.3550
1.6950      0.9871          11103.50
1.6960      0.9911          62523.50
1.6970      0.9558          565.4980
1.6980      0.9889          581.7660
1.6990      0.9895          593.2640
1.7000      0.9792          598.9140
1.7010      0.9726          201657.0
1.7020      0.9868          624.9950
1.7030      0.9797          632.3460
1.7040      0.9804          645.6000
1.7050      0.9796          649.7300
1.7060      0.9783          643.8030
1.7070      0.9748          661.2410
1.7080      0.9716          57474.70
1.7090      0.9462          599.5770
1.7100      0.9839          611.9600
1.7110      0.9812          605.0570
1.7120      0.9873          142266.0
1.7130      0.9857          595.0540
1.7140      0.9542          577.2640
1.7150      0.9771          581.8680
1.7160      0.9665          572.4480
1.7170      0.9880          597.9440
1.7180      0.9895          606.1980
1.7190      0.9897          770.9390
1.7200      0.9869          682.4340
1.7210      0.9230          33863.20
1.7220      0.9811          1162.730
1.7230      0.9794          538.4760
1.7240      0.9313          4522.290
1.7250      0.9531          70319.20
1.7260      0.9714          2954.780
1.7270      0.9807          513.7130
1.7280      0.9819          15241.40
1.7290      0.9592          496.6060
1.7300      0.9873          7876.130
1.7310      0.9823          492.0030
1.7320      0.8716          458.9390
1.7330      0.9854          37286.80
1.7340      0.9868          474.6490
1.7350      0.9849          14170.50
1.7360      0.9307          17110.80
1.7370      0.9407          447.0540
1.7380      0.9830          27629.00
1.7390      0.9872          68776.40
1.7400      0.9496          434.7570
1.7410      0.9111          425.2750
1.7420      0.9630          426.8000
1.7430      0.9880          28189.80
1.7440      0.9312          413.2820
1.7450      0.9806          80364.30
1.7460      0.9831          407.8400
1.7470      0.7827          382.8740
1.7480      0.9714          393.6460
1.7490      0.9859          388.6760
1.7500      0.9872          4809.300
1.7510      0.9698          29013.80
1.7520      0.9084          368.2910
1.7530      0.9833          8454.560
1.7540      0.9877          357.0180
1.7550      0.8839          352.0740
1.7560      0.9808          344.1660
1.7570      0.8413          340.9010
1.7580      0.9665          331.7840
1.7590      0.9889          324.6210
1.7600      0.9874          318.1730
1.7610      0.9176          315.5030
1.7620      0.9521          306.7060
1.7630      0.9067          303.5390
1.7640      0.9848          291.6370
1.7650      0.9746          225532.0
1.7660      0.6607          7740.470
1.7670      0.9731          69856.20
1.7680      0.9590          1220.220
1.7690      0.9662          3921.530
1.7700      0.9303          25485.90
1.7710      0.8925          262.3920
1.7720      0.9804          1242.900
1.7730      0.9638          8367.700
1.7740      0.8222          262.4300
1.7750      0.9477          226.8820
1.7760      0.7979          268.2970
1.7770      0.9447          540.7840
1.7780      0.9014          2344.080
1.7790      0.7461          291.7740
1.7800      0.9639          221.9320
1.7810      0.7289          20030.20
1.7820      0.9186          316.6570
1.7830      0.9495          896.3350
1.7840      0.8811          247.2270
1.7850      0.6183          635.7530
1.7860      0.7459          302.7450
1.7870      0.7787          296.2420
1.7880      0.9495          150608.0
1.7890      0.8884          332.7580
1.7900      0.8814          249.6980
1.7910      0.7195          307.8850
1.7920      0.7856          288.3820
1.7930      0.7207          376.5900
1.7940      0.6509          361.7140
1.7950      0.7441          326.7090
1.7960      0.7609          325.2680
1.7970      0.6901          365.7410
1.7980      0.7657          308.7700
1.7990      0.9474          161121.0
1.8000      0.3833          545.4930
1.8010      0.3476          582.0440
1.8020      0.4374          511.7750
1.8030      0.5567          496.8250
1.8040      0.6275          401.5690
1.8050      0.8161          290.1530
1.8060      0.1943          762.5840
1.8070      0.4483          32452.10
1.8080      0.6692          388.0600
1.8090      0.5723          474.3370
1.8100      0.6363          417.0820
1.8110      0.1950          804.2630
1.8120      0.4574          84112.40
1.8130      0.2618          779.9090
1.8140      0.6630          406.0610
1.8150      0.4199          601.7160
1.8160      0.1552          920.5530
1.8170      0.4257          613.2420
1.8180      0.5804          482.2880
1.8190      0.3693          702.9930
1.8200      0.1560          943.4680
1.8210      0.0973          8499.290
1.8220      0.0602          1099.760
1.8230      0.3592          727.3540
1.8240      0.7562          337.0310
1.8250      0.4552          22319.90
1.8260      0.1366          1119.620
1.8270      0.2561          913.9500
1.8280      0.2223          918.1660
1.8290      0.0891          1243.920
1.8300      0.1268          1198.780
1.8310      0.0777          1222.530
1.8320      0.2449          841.9880
1.8330      0.0934          1360.460
1.8340      0.2817          855.9300
1.8350      0.0200          1430.190
1.8360      0.0190          1461.690
1.8370      0.0375          1346.650
1.8380      0.0076          1565.260
1.8390      0.1457          1074.600
1.8400      0.0018          1670.260
1.8410      0.0696          1282.390
1.8420      0.0000          1771.030
1.8430      0.1305          4726.620
1.8440      0.1512          1211.350
1.8450      0.4264          726.9630
1.8460      0.1465          13569.30
1.8470      0.0002          1860.330
1.8480      0.0010          1828.630
1.8490      0.0185          1694.420
1.8500      0.1271          1363.080
1.8510      0.0976          1474.170
1.8520      0.3558          877.9910
1.8530      0.0261          9535.740
1.8540      0.0030          1938.790
1.8550      0.1254          1351.550
1.8560      0.1405          2139.220
1.8570      0.0047          1986.750
1.8580      0.1905          1326.070
1.8590      0.1323          7084.260
1.8600      0.0006          2160.390
1.8610      0.0342          1917.860
1.8620      0.4138          910.4150
1.8630      0.1616          1496.390
1.8640      0.1155          1673.440
1.8650      0.0623          1831.990
1.8660      0.4041          978.5330
1.8670      0.1110          1729.000
1.8680      0.0003          2459.350
1.8690      0.0451          1898.670
1.8700      0.0030          2343.940
1.8710      0.0007          2520.090
1.8720      0.0351          2114.690
1.8730      0.0041          2512.160
1.8740      0.0096          13142.30
1.8750      0.0311          2199.160
1.8760      0.0495          2477.880
1.8770      0.0030          3565.800
1.8780      0.1022          1897.670
1.8790      0.3375          1906.300
1.8800      0.3620          8037.840
1.8810      0.0633          2194.850
1.8820      0.3079          1516.140
1.8830      0.3692          1699.820
1.8840      0.0233          2920.760
1.8850      0.2395          1573.180
1.8860      0.2768          1650.920
1.8870      0.1324          2140.310
1.8880      0.5534          979.0250
1.8890      0.4450          2253.400
1.8900      0.0259          2819.560
1.8910      0.1894          4762.850
1.8920      0.0538          2849.670
1.8930      0.1364          2120.630
1.8940      0.1069          2427.950
1.8950      0.4179          1568.150
1.8960      0.4073          1367.140
1.8970      0.3527          1551.580
1.8980      0.0618          2753.580
1.8990      0.0206          3049.340
1.9000      0.0021          3410.960
1.9010      0.0780          2822.860
1.9020      0.2303          2013.880
1.9030      0.0041          3522.580
1.9040      0.2156          2039.860
1.9050      0.0125          6016.990
1.9060      0.0082          3492.300
1.9070      0.0230          3530.240
1.9080      0.4014          1552.340
1.9090      0.2249          2384.800
1.9100      0.2944          2028.530
1.9110      0.0771          3206.980
1.9120      0.0640          3317.380
1.9130      0.0733          3173.240
1.9140      0.0061          3960.550
1.9150      0.1814          2655.340
1.9160      0.1506          3066.480
1.9170      0.1293          3099.410
1.9180      0.6368          1050.700
1.9190      0.4187          8824.740
1.9200      0.0045          4215.940
1.9210      0.0243          4213.320
1.9220      0.3835          2044.320
1.9230      0.5909          1275.370
1.9240      0.0765          3955.910
1.9250      0.4238          58079.40
1.9260      0.5471          1609.440
1.9270      0.1098          3754.600
1.9280      0.2605          2666.470
1.9290      0.2496          3163.810
1.9300      0.3131          2773.380
1.9310      0.1543          3403.250
1.9320      0.3849          2430.750
1.9330      0.4821          1992.500
1.9340      0.2599          3116.440
1.9350      0.6779          21411.30
1.9360      0.4410          2173.750
1.9370      0.3509          2834.250
1.9380      0.3349          2838.950
1.9390      0.3050          3069.040
1.9400      0.3001          4236.720
1.9410      0.3660          2714.660
1.9420      0.5101          2167.770
1.9430      0.7755          818.0870
1.9440      0.3755          2667.360
1.9450      0.2972          3102.990
1.9460      0.5553          1635.710
1.9470      0.5429          1930.870
1.9480      0.4496          2382.440
1.9490      0.4328          2299.960
1.9500      0.5478          1644.980
1.9510      0.5677          1631.100
1.9520      0.6045          8969.190
1.9530      0.3341          3652.570
1.9540      0.3686          2496.200
1.9550      0.3700          2305.360
1.9560      0.2674          12880.20
1.9570      0.3380          3013.540
1.9580      0.2878          2844.410
1.9590      0.3131          7392.730
1.9600      0.6371          1248.000
1.9610      0.5379          1988.870
1.9620      0.6008          5809.040
1.9630      0.3781          2929.420
1.9640      0.4734          20415.20
1.9650      0.4781          1998.820
1.9660      0.6305          1458.780
1.9670      0.5577          1573.370
1.9680      0.6477          8968.690
1.9690      0.6073          1464.690
1.9700      0.7773          27319.00
1.9710      0.6950          1375.860
1.9720      0.5299          2401.350
1.9730      0.8446          3232.590
1.9740      0.6901          4944.230
1.9750      0.8338          15660.70
1.9760      0.8293          789.9610
1.9770      0.9325          42505.60
1.9780      0.8987          442.2320
1.9790      0.9223          328.1010
1.9800      0.5701          2621.100
1.9810      0.8752          686.0550
1.9820      0.9538          238.4500
1.9830      0.8902          615.7230
1.9840      0.9728          15249.70
1.9850      0.9001          582.3380
1.9860      0.9760          124.8730
1.9870      0.7097          1863.090
1.9880      0.9524          262.9160
1.9890      0.9710          1334.410
1.9900      0.7697          1523.850
1.9910      0.8968          635.6480
1.9920      0.9654          1222.160
1.9930      0.9724          1168.130
1.9940      0.8678          881.9230
1.9950      0.9258          344.5720
1.9960      0.8312          805.8010
1.9970      0.7241          1237.950
1.9980      0.5645          2254.290
1.9990      0.4811          2623.290
2.0000      0.4704          6464.630
2.0010      0.3327          75774.10
2.0020      0.2653          4382.480
2.0030      0.2206          25855.10
2.0040      0.2583          4294.390
2.0050      0.2361          4607.420
2.0060      0.2103          5169.330
2.0070      0.3154          8555.780
2.0080      0.4815          2360.470
2.0090      0.5791          1700.250
2.0100      0.4029          3499.410
2.0110      0.3691          3396.630
2.0120      0.3355          4793.330
2.0130      0.3999          3635.410
2.0140      0.2922          4694.690
2.0150      0.4605          3211.200
2.0160      0.4070          3676.050
2.0170      0.3292          5468.470
2.0180      0.4840          3094.660
2.0190      0.5123          13496.60
2.0200      0.5317          2977.250
2.0210      0.5132          3216.680
2.0220      0.6524          2010.410
2.0230      0.7172          1863.030
2.0240      0.7347          1717.650
2.0250      0.7635          1517.040
2.0260      0.8255          959.8190
2.0270      0.8463          828.9140
2.0280      0.8064          67173.10
2.0290      0.8643          840.0890
2.0300      0.9133          454.0990
2.0310      0.9198          462.4840
2.0320      0.9386          335.7170
2.0330      0.9051          675.3190
2.0340      0.9423          32974.30
2.0350      0.9445          254.9450
2.0360      0.9421          212.8190
2.0370      0.9453          206.3230
2.0380      0.9356          317.6900
2.0390      0.9397          242.0380
2.0400      0.8879          691.5400
2.0410      0.9320          93530.20
2.0420      0.9174          300.0630
2.0430      0.9113          357.1210
2.0440      0.9080          500.3150
2.0450      0.9297          346.7490
2.0460      0.9224          383.9190
2.0470      0.8797          595.1670
2.0480      0.8351          898.2340
2.0490      0.7736          1356.890
2.0500      0.7239          16922.80
2.0510      0.7503          1756.130
2.0520      0.6641          2432.780
2.0530      0.6220          3023.710
2.0540      0.5763          3406.970
2.0550      0.6879          2303.830
2.0560      0.5863          62525.30
2.0570      0.5874          3288.130
2.0580      0.7480          1852.540
2.0590      0.7005          1964.820
2.0600      0.8926          597.0240
2.0610      0.8532          912.7340
2.0620      0.6849          2267.720
2.0630      0.7616          1881.580
2.0640      0.6177          3296.040
2.0650      0.7375          2193.720
2.0660      0.7185          2430.520
2.0670      0.6337          3804.520
2.0680      0.7694          2051.780
2.0690      0.7421          2248.120
2.0700      0.6884          2875.800
2.0710      0.8053          1689.630
2.0720      0.8100          1574.350
2.0730      0.7482          43291.50
2.0740      0.8337          1235.470
2.0750      0.8615          1062.600
2.0760      0.8566          993.3830
2.0770      0.8860          839.5080
2.0780      0.8674          1109.400
2.0790      0.9454          357.4190
2.0800      0.9557          280.2650
2.0810      0.9495          323.3420
2.0820      0.9335          466.1830
2.0830      0.9226          535.8460
2.0840      0.9351          442.8700
2.0850      0.9054          825.7750
2.0860      0.9223          9583.290
2.0870      0.9515          359.6410
2.0880      0.9389          454.4060
2.0890      0.9400          473.2880
2.0900      0.9499          432.8750
2.0910      0.9613          19106.00
2.0920      0.9532          367.5850
2.0930      0.9645          290.6330
2.0940      0.9510          540.1650
2.0950      0.9733          196.5180
2.0960      0.9794          157.1330
2.0970      0.9754          187.0130
2.0980      0.9782          195.1590
2.0990      0.9490          678.0190
2.1000      0.9724          274.2730
2.1010      0.9830          1163.210
2.1020      0.9491          783.8070
2.1030      0.9866          3163.580
2.1040      0.9838          117.3680
2.1050      0.9822          1562.490
2.1060      0.9850          3748.450
2.1070      0.9827          7395.600
2.1080      0.9809          119.4490
2.1090      0.9822          107.6180
2.1100      0.9722          7247.350
2.1110      0.9836          3416.560
2.1120      0.9696          16504.20
2.1130      0.9803          188.6280
2.1140      0.9894          70.45820
2.1150      0.9864          111.8190
2.1160      0.9816          7336.580
2.1170      0.9866          85.70250
2.1180      0.9836          26977.30
2.1190      0.9610          623.1940
2.1200      0.9751          351.5160
2.1210      0.9868          110.9080
2.1220      0.9892          68.47050
2.1230      0.9904          10920.40
2.1240      0.9795          303.6690
2.1250      0.9821          29542.50
2.1260      0.9916          51.92940
2.1270      0.9909          75.26860
2.1280      0.9623          1802.490
2.1290      0.9926          49.80950
2.1300      0.9929          42.76640
2.1310      0.9927          52.21670
2.1320      0.9930          2107.410
2.1330      0.9930          10588.70
2.1340      0.9935          40.18280
2.1350      0.9937          37.28000
2.1360      0.9848          251.6700
2.1370      0.9921          57.41870
2.1380      0.9931          52.98910
2.1390      0.9927          65.16570
2.1400      0.9924          68.35440
2.1410      0.9936          39.44430
2.1420      0.9922          56.40020
2.1430      0.9906          65.42980
2.1440      0.9928          44.19840
2.1450      0.9924          70.02800
2.1460      0.9916          73.87380
2.1470      0.9891          86.56020
2.1480      0.9878          141.2940
2.1490      0.9851          119.0850
2.1500      0.9835          3421.110
2.1510      0.9712          79851.80
2.1520      0.9698          546.7110
2.1530      0.9775          2881.300
2.1540      0.9805          30423.20
2.1550      0.9813          447.1040
2.1560      0.9863          163.5490
2.1570      0.9900          1147.340
2.1580      0.9876          11728.20
2.1590      0.9789          427.6460
2.1600      0.9848          245.0820
2.1610      0.9669          350.2250
2.1620      0.9872          559.4370
2.1630      0.9545          1174.960
2.1640      0.9715          4625.810
2.1650      0.9893          90.56260
2.1660      0.9870          157.7430
2.1670      0.9700          323.0020
2.1680      0.9868          142.0280
2.1690      0.9641          1118.610
2.1700      0.9866          127.3170
2.1710      0.9916          18038.10
2.1720      0.9901          87.18910
2.1730      0.9624          418.7440
2.1740      0.9824          425.1880
2.1750      0.9760          563.6510
2.1760      0.9754          720.6080
2.1770      0.9927          68.68900
2.1780      0.9758          287.2100
2.1790      0.9666          1063.720
2.1800      0.9886          57386.00
2.1810      0.9936          56.19940
2.1820      0.9939          43.48720
2.1830      0.9480          1725.560
2.1840      0.9749          351.8500
2.1850      0.9356          2325.120
2.1860      0.9930          83.61280
2.1870      0.9839          23897.10
2.1880      0.9718          904.3780
2.1890      0.9924          155.2290
2.1900      0.9813          313.1180
2.1910      0.9829          484.7030
2.1920      0.9939          45.09620
2.1930      0.9933          55.07910
2.1940      0.9930          85.19490
2.1950      0.9543          1395.530
2.1960      0.9899          69138.00
2.1970      0.9831          482.8050
2.1980      0.9426          2157.110
2.1990      0.9558          908.8590
2.2000      0.8741          1902.240
2.2010      0.9430          873.2800
2.2020      0.9349          974.1230
2.2030      0.9575          640.2010
2.2040      0.9728          725.2550
2.2050      0.9283          23009.30
2.2060      0.9848          222.4450
2.2070      0.9798          675.7780
2.2080      0.9874          319.1960
2.2090      0.9924          120.2700
2.2100      0.9875          319.5930
2.2110      0.9813          231.4190
2.2120      0.9924          27430.50
2.2130      0.9919          27488.20
2.2140      0.9902          165.0090
2.2150      0.9817          635.6720
2.2160      0.9576          1407.470
2.2170      0.9696          438.8290
2.2180      0.9858          267.6550
2.2190      0.9885          182.6370
2.2200      0.9894          232.1190
2.2210      0.9683          518.8510
2.2220      0.9636          566.8670
2.2230      0.9874          293.7460
2.2240      0.9850          240.0910
2.2250      0.9770          14812.50
2.2260      0.9835          382.2120
2.2270      0.9477          966.2710
2.2280      0.9804          367.3690
2.2290      0.9878          200.1560
2.2300      0.9876          173.2120
2.2310      0.9779          33149.40
2.2320      0.9321          1335.290
2.2330      0.9778          399.8370
2.2340      0.9684          707.8970
2.2350      0.9783          417.0900
2.2360      0.9681          895.8920
2.2370      0.9607          757.8650
2.2380      0.9588          861.1790
2.2390      0.9866          225.5250
2.2400      0.9612          885.3170
2.2410      0.9636          778.5860
2.2420      0.9674          692.9920
2.2430      0.9763          506.8390
2.2440      0.9349          1695.980
2.2450      0.9881          219.4680
2.2460      0.9495          7884.770
2.2470      0.9098          2383.170
2.2480      0.9789          467.9250
2.2490      0.9779          485.9510
2.2500      0.9615          894.2670
2.2510      0.9555          1099.500
2.2520      0.9622          16586.90
2.2530      0.9659          821.1040
2.2540      0.9227          1928.970
2.2550      0.9638          915.0290
2.2560      0.9433          1454.770
2.2570      0.9115          2283.550
2.2580      0.9518          1250.870
2.2590      0.9776          476.8190
2.2600      0.9532          1135.410
2.2610      0.9201          2126.280
2.2620      0.8737          3521.810
2.2630      0.9815          480.0480
2.2640      0.9231          2059.620
2.2650      0.9124          2533.230
2.2660      0.9818          387.3250
2.2670      0.9698          732.8300
2.2680      0.9260          2094.330
2.2690      0.8810          6125.980
2.2700      0.9266          1967.980
2.2710      0.9817          485.5990
2.2720      0.9183          2408.620
2.2730      0.9576          1185.590
2.2740      0.9659          7022.510
2.2750      0.9092          2669.810
2.2760      0.8631          4133.310
2.2770      0.9083          2710.050
2.2780      0.9673          858.6000
2.2790      0.9795          525.5520
2.2800      0.9786          558.3460
2.2810      0.9022          3350.120
2.2820      0.9649          980.7840
2.2830      0.8476          4807.940
2.2840      0.9018          3252.580
2.2850      0.9197          2505.450
2.2860      0.9777          707.4810
2.2870      0.9638          1124.810
2.2880      0.9541          1278.020
2.2890      0.9357          2010.550
2.2900      0.8491          5311.970
2.2910      0.9523          1967.540
2.2920      0.9105          3348.090
2.2930      0.9492          1673.370
2.2940      0.9241          3614.400
2.2950      0.9003          4008.180
2.2960      0.8666          5775.460
2.2970      0.9601          1412.370
2.2980      0.9033          4174.720
2.2990      0.8725          5492.280
2.3000      0.9009          3286.290
2.3010      0.9041          3175.660
2.3020      0.9436          1870.620
2.3030      0.9325          2382.380
2.3040      0.8519          5261.890
2.3050      0.9181          2702.200
2.3060      0.9404          1969.720
2.3070      0.9308          2549.840
2.3080      0.9088          3324.460
2.3090      0.9519          1459.900
2.3100      0.9707          1426.450
2.3110      0.9930          232.8830
2.3120      0.9637          1496.050
2.3130      0.9940          114.3260
2.3140      0.9932          138.0740
2.3150      0.9892          556.3250
2.3160      0.8909          4390.090
2.3170      0.6816          14997.00
2.3180      0.7779          9915.330
2.3190      0.8894          4903.830
2.3200      0.8998          4476.360
2.3210      0.9250          3362.590
2.3220      0.9023          9001.000
2.3230      0.8981          9035.060
2.3240      0.9531          2495.970
2.3250      0.9471          2793.610
2.3260      0.9393          2342.540
2.3270      0.9718          1137.740
2.3280      0.9600          2508.690
2.3290      0.8836          5376.090
2.3300      0.9775          974.7870
2.3310      0.9486          3199.060
2.3320      0.8962          4898.540
2.3330      0.9632          1734.940
2.3340      0.9295          3051.730
2.3350      0.9221          4876.540
2.3360      0.9259          3460.710
2.3370      0.9583          2150.890
2.3380      0.9172          4286.490
2.3390      0.9105          6334.100
2.3400      0.7900          13923.60
2.3410      0.8655          9632.130
2.3420      0.8968          12174.90
2.3430      0.9193          4480.510
2.3440      0.9238          4352.480
2.3450      0.8572          10730.10
2.3460      0.9154          4935.850
2.3470      0.8833          6956.000
2.3480      0.8038          11805.60
2.3490      0.9054          5409.570
2.3500      0.8259          15463.70
2.3510      0.8482          11079.50
2.3520      0.7519          35865.80
2.3530      0.8547          14444.80
2.3540      0.9141          5626.490
2.3550      0.9243          4486.560
2.3560      0.7908          13026.40
2.3570      0.9269          7103.060
2.3580      0.8925          7901.020
2.3590      0.7976          16299.90
2.3600      0.9834          1348.470
2.3610      0.9799          1480.650
2.3620      0.8873          7215.710
2.3630      0.9699          3393.130
2.3640      0.8897          15330.10
2.3650      0.9424          3684.700
2.3660      0.9341          4233.210
2.3670      0.8800          15623.30
2.3680      0.8750          9796.350
2.3690      0.8787          16596.60
2.3700      0.7521          19283.50
2.3710      0.5300          52760.30
2.3720      0.7189          23463.10
2.3730      0.8728          10743.30
2.3740      0.9114          6690.870
2.3750      0.9066          6684.790
2.3760      0.9119          12156.10
2.3770      0.7960          22752.20
2.3780      0.7531          50869.60
2.3790      0.9617          5294.100
2.3800      0.8565          14428.10
2.3810      0.9263          9963.430
2.3820      0.9703          3908.220
2.3830      0.7629          35908.30
2.3840      0.7288          55541.30
2.3850      0.9370          7493.450
2.3860      0.7790          40659.30
2.3870      0.8958          9530.340
2.3880      0.7643          49846.70
2.3890      0.9695          4596.940
2.3900      0.8912          9134.190
2.3910      0.7911          40887.60
2.3920      0.8261          38096.70
2.3930      0.9279          7220.590
2.3940      0.9112          12559.70
2.3950      0.9281          7393.090
2.3960      0.9212          8251.920
2.3970      0.7004          64903.60
2.3980      0.9521          6638.790
2.3990      0.9535          5488.510
2.4000      0.8725          23147.70
2.4010      0.9467          6374.160
2.4020      0.9403          8908.560
2.4030      0.9568          5260.240
2.4040      0.6833          77520.70
2.4050      0.9486          9279.220
2.4060      0.8922          19818.90
2.4070      0.7592          59714.00
2.4080      0.8102          43873.50
2.4090      0.9556          5943.270
2.4100      0.7444          61644.90
2.4110      0.9743          4961.280
2.4120      0.8205          45380.50
2.4130      0.9740          4961.110
2.4140      0.7103          77681.90
2.4150      0.9314          16034.60
2.4160      0.4454          163168.0
2.4170      0.9298          14825.30
2.4180      0.8511          37880.00
2.4190      0.3669          193731.0
2.4200      0.8378          43654.30
2.4210      0.9635          7234.470
2.4220      0.8962          26745.70
2.4230      0.9572          6987.040
2.4240      0.7544          65403.00
2.4250      0.9183          16093.70
2.4260      0.7705          66345.10
2.4270      0.9372          13740.70
2.4280      0.9562          6197.520
2.4290      0.9647          7012.990
2.4300      0.9585          8079.560
2.4310      0.9728          5443.470
2.4320      0.9730          5732.130
2.4330      0.7485          77575.10
2.4340      0.9164          21748.80
2.4350      0.4411          196441.0
2.4360      0.3418          223327.0
2.4370      0.7370          84146.00
2.4380      0.9528          10415.80
2.4390      0.9734          6241.930
2.4400      0.9708          6027.420
2.4410      0.9742          5285.690
2.4420      0.9702          7052.930
2.4430      0.8324          49523.20
2.4440      0.9550          11055.00
2.4450      0.9223          22317.90
2.4460      0.3766          236505.0
2.4470      0.6066          140121.0
2.4480      0.7396          85362.40
2.4490      0.9442          15485.80
2.4500      0.5705          159097.0
2.4510      0.3989          234516.0
2.4520      0.7553          82329.10
2.4530      0.9314          21271.10
2.4540      0.7318          91254.50
2.4550      0.6257          146250.0
2.4560      0.9578          11680.60
2.4570      0.9491          15069.40
2.4580      0.9692          8165.810
2.4590      0.9483          15237.10
2.4600      0.9613          11794.30
2.4610      0.9480          16552.10
2.4620      0.8516          51647.80
2.4630      0.3854          266778.0
2.4640      0.8036          72648.80
2.4650      0.9383          20710.50
2.4660      0.9361          21914.80
2.4670      0.9493          17232.50
2.4680      0.6913          127263.0
2.4690      0.8888          38987.70
2.4700      0.9259          25639.90
2.4710      0.8737          45880.80
2.4720      0.2499          357719.0
2.4730      0.2632          331246.0
2.4740      0.8851          42916.70
2.4750      0.8443          60899.50
2.4760      0.8844          44758.40
2.4770      0.8615          53711.40
2.4780      0.8860          43896.90
2.4790      0.7478          108021.0
2.4800      0.6035          169940.0
2.4810      0.4560          243685.0
2.4820      0.6335          167271.0
2.4830      0.7862          85153.70
2.4840      0.2423          388620.0
2.4850      0.6605          143169.0
2.4860      0.8269          71027.70
2.4870      0.5542          201522.0
2.4880      0.1482          443039.0
2.4890      0.5468          213692.0
2.4900      0.6394          170397.0
2.4910      0.6910          139921.0
2.4920      0.3879          309471.0
2.4930      0.6075          174041.0
2.4940      0.4999          238684.0
2.4950      0.0858          519246.0
2.4960      0.7442          114669.0
2.4970      0.6518          174678.0
2.4980      0.6490          179833.0
2.4990      0.7497          123627.0
2.5000      0.7987          93103.90